time (sec),mcp9808: 1,tmp36: 0
,temperature C,temperature C
1.0060310363769531,21.375,23.6494140625
2.0018529891967773,21.1875,23.552734375
3.005819082260132,21.125,23.7138671875
4.006059885025024,21.125,23.5849609375
5.006437063217163,21.0625,23.810546875
6.0003790855407715,21.0625,23.6494140625
7.001515865325928,21.0625,23.5849609375
8.00250792503357,21.0,23.681640625
9.002212047576904,20.9375,23.5205078125
10.006021976470947,20.375,23.166015625
11.00087594985962,19.8125,22.71484375
12.001095056533813,19.375,22.45703125
13.004597902297974,18.875,22.1669921875
14.004639863967896,18.625,22.005859375
15.00219202041626,18.625,21.9736328125
16.002219915390015,18.5,21.7802734375
17.00259494781494,18.375,21.6513671875
18.005084991455078,18.125,21.490234375
19.00050687789917,17.9375,21.361328125
20.00038194656372,17.75,21.2001953125
21.003098011016846,17.625,21.103515625
22.00409507751465,17.5,21.0068359375
23.00394606590271,17.3125,20.78125
24.00216507911682,17.0625,20.78125
25.0058650970459,16.9375,20.716796875
26.000298023223877,16.8125,20.587890625
27.0037899017334,16.6875,20.458984375
28.00219988822937,16.5625,20.3623046875
29.00617289543152,16.4375,20.1689453125
30.005263090133667,16.3125,20.201171875
31.003577947616577,16.1875,20.0400390625
32.005125999450684,16.0625,20.0400390625
33.002350091934204,15.875,19.814453125
34.001786947250366,15.9375,19.87890625
35.00205898284912,15.75,19.6533203125
36.00415802001953,15.625,19.685546875
37.00546193122864,15.5,19.5888671875
38.00469088554382,15.375,19.4599609375
39.00564098358154,15.25,19.3955078125
40.00195598602295,15.125,19.2666015625
41.00155186653137,15.0,19.234375
42.00386905670166,14.9375,19.1376953125
43.00377607345581,14.75,19.0732421875
44.005966901779175,14.625,18.9443359375
45.003345012664795,14.5,18.783203125
46.00365400314331,14.375,18.783203125
47.002537965774536,14.3125,18.6865234375
48.00356197357178,14.125,18.6220703125
49.0041880607605,14.0625,18.525390625
50.00301194190979,13.9375,18.4609375
51.006463050842285,13.8125,18.396484375
52.00454592704773,13.6875,18.267578125
53.00645089149475,13.5,18.203125
54.004178047180176,13.4375,18.2353515625
55.004217863082886,13.3125,18.203125
56.002047061920166,13.1875,18.009765625
57.001293897628784,13.0625,17.9130859375
58.00142192840576,13.0,17.880859375
59.00471091270447,12.875,17.7841796875
60.00518488883972,12.6875,17.7841796875
61.00393891334534,12.5625,17.6875
62.00531005859375,12.5,17.623046875
63.002800941467285,12.375,17.5908203125
64.00515294075012,12.25,17.5263671875
65.00077986717224,12.125,17.236328125
66.00545692443848,12.0625,17.30078125
67.00302195549011,11.9375,17.2685546875
68.00010895729065,11.8125,17.5908203125
69.00095891952515,11.6875,17.04296875
70.0050790309906,11.5625,17.04296875
71.00513887405396,11.4375,17.0751953125
72.00498604774475,11.375,17.04296875
73.004469871521,11.1875,16.978515625
74.0019280910492,11.125,16.8173828125
75.00376105308533,10.9375,16.78515625
76.0023820400238,10.875,16.720703125
77.00573706626892,10.8125,16.720703125
78.00028705596924,10.75,16.65625
79.00056600570679,10.6875,16.5595703125
80.00301194190979,10.5,16.52734375
81.00413298606873,10.4375,16.3984375
82.00579786300659,10.3125,16.3662109375
83.00465393066406,10.1875,16.2373046875
84.00339388847351,10.125,16.3662109375
85.0018630027771,10.0,16.26953125
86.00235390663147,9.875,16.205078125
87.00222706794739,9.8125,16.076171875
88.0019359588623,9.6875,16.076171875
89.00065588951111,9.625,16.076171875
90.00261902809143,9.5,15.947265625
91.00454688072205,9.4375,15.8505859375
92.00186491012573,9.375,15.947265625
93.00267195701599,9.1875,15.9150390625
94.00393509864807,9.0625,15.5927734375
95.00417494773865,8.9375,15.75390625
96.00542902946472,8.875,15.689453125
97.00399088859558,8.75,15.625
98.00174498558044,8.625,15.4638671875
99.00403094291687,8.5625,15.6572265625
100.00613808631897,8.4375,15.4638671875
101.0044469833374,8.375,15.3994140625
102.00177192687988,8.25,15.3994140625
103.0024790763855,8.125,15.3349609375
104.00112986564636,8.0625,15.1416015625
105.0038390159607,7.875,15.0771484375
106.00093007087708,7.875,15.173828125
107.00596809387207,7.75,15.173828125
108.00376605987549,7.6875,15.1416015625
109.00224900245667,7.5625,15.044921875
110.00379204750061,7.5,14.8515625
111.00124287605286,7.4375,14.8837890625
112.00464200973511,7.3125,14.9482421875
113.00206899642944,7.1875,14.72265625
114.00370502471924,7.125,14.7548828125
115.001620054245,7.0,14.72265625
116.00227093696594,6.9375,14.658203125
117.00630187988281,6.875,14.658203125
118.000727891922,6.8125,14.59375
119.00145697593689,6.6875,14.7548828125
120.0005419254303,6.5625,14.6904296875
121.00238609313965,6.5,14.4326171875
122.00579404830933,6.4375,14.4326171875
123.00063300132751,6.3125,14.4326171875
124.00303792953491,6.3125,14.4326171875
125.0053939819336,6.25,14.4326171875
126.00526905059814,6.125,14.3359375
127.00548100471497,6.0625,14.400390625
128.00123405456543,6.0,14.3037109375
129.0019030570984,5.875,14.078125
130.00406098365784,5.6875,14.20703125
131.00319004058838,5.5625,13.8203125
132.00415587425232,5.5625,14.078125
133.00365209579468,5.4375,14.0458984375
134.0050709247589,5.375,13.8525390625
135.00536608695984,5.25,14.1103515625
136.0005509853363,5.125,13.94921875
137.00169205665588,5.0,13.9169921875
138.0053129196167,4.9375,13.8525390625
139.00174808502197,4.875,13.8203125
140.00238394737244,4.8125,13.8203125
141.00215196609497,4.75,13.7880859375
142.0013198852539,4.625,13.755859375
143.00143790245056,4.5625,13.5947265625
144.0033040046692,4.5,13.626953125
145.00381207466125,4.4375,13.626953125
146.0043659210205,4.3125,13.5947265625
147.0040819644928,4.3125,13.5625
148.0049068927765,4.25,13.4013671875
149.0037500858307,4.125,13.5947265625
150.00217390060425,4.125,13.4658203125
151.00108408927917,4.0625,13.5302734375
152.00108003616333,4.0,13.3046875
153.00594806671143,3.875,13.3369140625
154.00390005111694,3.75,13.2080078125
155.00065398216248,3.6875,13.369140625
156.0047369003296,3.625,13.3369140625
157.00137901306152,3.5625,13.3369140625
158.00220799446106,3.5,13.3046875
159.00138092041016,3.4375,13.240234375
160.0056450366974,3.375,13.1435546875
161.0030550956726,3.25,13.17578125
162.00317096710205,3.1875,13.17578125
163.00202202796936,3.0625,12.982421875
164.00252890586853,3.0,13.046875
165.00501108169556,2.9375,12.982421875
166.00360989570618,2.875,13.0146484375
167.00259709358215,2.8125,13.0146484375
168.00572299957275,2.75,12.982421875
169.00366497039795,2.625,12.8857421875
170.0002338886261,2.625,12.8857421875
171.00177597999573,2.5,12.853515625
172.0037169456482,2.4375,12.7568359375
173.00276398658752,2.3125,12.8212890625
174.00244307518005,2.1875,12.8212890625
175.0028200149536,2.1875,12.8212890625
176.00312495231628,2.125,12.853515625
177.0052080154419,2.0625,12.66015625
178.0038619041443,1.9375,12.6279296875
179.00521087646484,1.875,12.6923828125
180.00104188919067,1.8125,12.5634765625
181.00512790679932,1.8125,12.5634765625
182.00024008750916,1.6875,12.6279296875
183.0009250640869,1.625,12.595703125
184.00485587120056,1.5,12.53125
185.0036280155182,1.4375,12.595703125
186.00411891937256,1.375,12.466796875
187.00372004508972,1.3125,12.4345703125
188.00534296035767,1.3125,12.53125
189.00641703605652,1.1875,12.40234375
190.00564289093018,1.125,12.3701171875
191.0016279220581,1.0,12.337890625
192.00089502334595,0.9375,12.40234375
193.0039360523224,0.875,12.2734375
194.00325989723206,0.8125,12.337890625
195.00367307662964,0.75,12.3056640625
196.0007939338684,0.6875,12.2734375
197.001051902771,0.6875,12.1767578125
198.00477194786072,0.625,12.3701171875
199.00067591667175,0.5,12.2734375
200.00203394889832,0.4375,11.951171875
201.00461196899414,0.3125,12.1767578125
202.0006809234619,0.25,12.1123046875
203.00502800941467,0.25,12.080078125
204.00123190879822,0.1875,11.8544921875
205.0033860206604,0.0625,12.015625
206.00420904159546,0.0,11.8544921875
207.0024070739746,-0.0625,11.9189453125
208.0055799484253,-0.125,11.951171875
209.00605487823486,-0.1875,11.951171875
210.00260996818542,-0.25,11.7578125
211.0022430419922,-0.25,11.7900390625
212.00038504600525,-0.3125,11.951171875
213.00605702400208,-0.375,11.8544921875
214.00657296180725,-0.4375,11.822265625
215.0026409626007,-0.5,11.7578125
216.00381302833557,-0.5625,11.822265625
217.001699924469,-0.625,11.693359375
218.00333404541016,-0.6875,11.7900390625
219.0037920475006,-0.75,11.822265625
220.00361704826355,-0.75,11.88671875
221.0034999847412,-0.875,11.7578125
222.00377202033997,-0.9375,11.693359375
223.00362992286682,-1.0,11.5966796875
224.00359797477722,-1.0625,11.6611328125
225.0057680606842,-1.125,11.5966796875
226.0044720172882,-1.1875,11.5
227.00134205818176,-1.1875,11.564453125
228.0015459060669,-1.375,11.6611328125
229.00536394119263,-1.375,11.693359375
230.00275087356567,-1.1875,11.951171875
231.0035638809204,-0.9375,12.1767578125
232.0028359889984,-1.0625,12.2734375
233.002366065979,-0.9375,12.4345703125
234.00240087509155,-1.0625,12.3701171875
235.0024049282074,-1.25,12.3056640625
236.0028100013733,-1.25,12.40234375
237.00196504592896,-1.25,12.3701171875
238.00461792945862,-1.25,12.1767578125
239.00325202941895,-1.3125,12.3701171875
240.0025510787964,-1.3125,12.3701171875
241.00584602355957,-1.3125,12.3056640625
242.00300788879395,-1.375,12.208984375
243.00209307670593,-1.4375,12.14453125
244.00166702270508,-1.5,12.1123046875
245.0010850429535,-1.5,12.14453125
246.00289392471313,-1.5625,12.208984375
247.00105690956116,-1.5625,12.0478515625
248.00487995147705,-1.625,11.9833984375
249.00440001487732,-1.6875,12.337890625
250.0028040409088,-1.6875,12.015625
251.00293397903442,-1.75,11.951171875
252.00244688987732,-1.875,11.7900390625
253.00309896469116,-1.875,11.9189453125
254.00185799598694,-1.9375,11.9189453125
255.00133204460144,-2.0,11.822265625
256.00509309768677,-2.0,11.9189453125
257.00250005722046,-2.125,11.822265625
258.00463700294495,-2.25,11.822265625
259.00467109680176,-2.3125,11.822265625
260.0026330947876,-2.3125,11.7255859375
261.00517892837524,-2.375,11.822265625
262.0050220489502,-2.375,11.693359375
263.0014259815216,-2.5,11.7900390625
264.00112986564636,-2.5,11.5966796875
265.0059480667114,-2.5625,11.7900390625
266.00375604629517,-2.6875,11.5966796875
267.00366401672363,-2.75,11.822265625
268.00576305389404,-2.75,11.6611328125
269.00495290756226,-2.8125,11.6611328125
270.00091886520386,-2.875,11.62890625
271.0061020851135,-2.9375,11.564453125
272.0048689842224,-3.0,11.6611328125
273.00475692749023,-3.0625,11.693359375
274.00113105773926,-3.125,11.62890625
275.00209498405457,-3.1875,11.564453125
276.00396609306335,-3.1875,11.5322265625
277.0015060901642,-3.1875,11.5966796875
278.0016288757324,-3.3125,11.5966796875
279.00293493270874,-3.375,11.62890625
280.0012540817261,-3.5,11.62890625
281.00416588783264,-3.5625,11.564453125
282.0003480911255,-3.5,11.435546875
283.0035059452057,-3.625,11.5
284.00476002693176,-3.625,11.5
285.00199604034424,-3.75,11.564453125
286.00232195854187,-3.75,11.5
287.0015480518341,-3.8125,11.37109375
288.0050859451294,-3.9375,11.435546875
289.00301790237427,-3.875,11.435546875
290.0040440559387,-4.0,11.306640625
291.0022349357605,-4.0625,11.306640625
292.001690864563,-4.1875,11.5
293.00106501579285,-4.1875,11.37109375
294.0028488636017,-4.25,11.3388671875
295.0014410018921,-4.1875,11.3388671875
296.0045220851898,-4.25,11.2744140625
297.0018630027771,-4.375,11.4033203125
298.00138092041016,-4.375,11.2744140625
299.0026710033417,-4.4375,11.2099609375
300.00514101982117,-4.5625,11.2099609375
301.0045020580292,-4.5,11.177734375
302.0010669231415,-4.5625,11.2421875
303.00444507598877,-4.5625,11.2421875
304.0037100315094,-4.625,11.2421875
305.0012159347534,-4.6875,11.2421875
306.00513195991516,-4.6875,11.177734375
307.0005929470062,-4.75,11.2421875
308.005215883255,-4.6875,11.306640625
309.00168108940125,-4.75,11.2099609375
310.00103402137756,-4.8125,11.2099609375
311.00227189064026,-4.8125,11.2099609375
312.0021688938141,-4.875,11.2099609375
313.0021770000458,-4.9375,11.2099609375
314.00229692459106,-4.9375,11.1455078125
315.0011899471283,-4.9375,11.11328125
316.00281405448914,-5.0,11.048828125
317.000540971756,-5.0625,11.0810546875
318.00307989120483,-5.1875,10.9521484375
319.00461888313293,-5.125,11.0166015625
320.00446009635925,-5.25,10.85546875
321.0052239894867,-5.1875,10.9521484375
322.00316286087036,-5.3125,10.9521484375
323.00517106056213,-5.375,10.8876953125
324.003928899765,-5.375,10.9521484375
325.00335001945496,-5.4375,10.85546875
326.00262689590454,-5.5,10.85546875
327.00038409233093,-5.5625,10.919921875
328.003534078598,-5.625,11.0166015625
329.0046880245209,-5.625,10.8876953125
330.00465989112854,-5.625,10.85546875
331.0041379928589,-5.6875,10.984375
332.0064859390259,-5.6875,10.8232421875
333.0016539096832,-5.6875,10.791015625
334.0026650428772,-5.8125,10.8232421875
335.0030150413513,-5.875,10.919921875
336.00592398643494,-5.875,10.8232421875
337.0002238750458,-6.0,10.919921875
338.00266098976135,-6.0,10.791015625
339.0020959377289,-6.0625,10.7587890625
340.0045440196991,-6.0625,10.7587890625
341.00500988960266,-6.125,10.7587890625
342.00514793395996,-6.0625,10.7265625
343.00300693511963,-6.125,10.7265625
344.00148701667786,-6.1875,10.7587890625
345.00215697288513,-6.25,10.6943359375
346.00271701812744,-6.3125,10.662109375
347.0034098625183,-6.3125,10.662109375
348.00340700149536,-6.375,10.7587890625
349.00390100479126,-6.4375,10.662109375
350.001944065094,-6.4375,10.59765625
351.0041310787201,-6.4375,10.533203125
352.0019860267639,-6.5625,10.662109375
353.003534078598,-6.5625,10.662109375
354.00389099121094,-6.5625,10.8232421875
355.0013599395752,-6.625,10.5654296875
356.0031590461731,-6.6875,10.5654296875
357.0041809082031,-6.75,10.533203125
358.00249791145325,-6.8125,10.5654296875
359.0033988952637,-6.875,10.5654296875
360.00083088874817,-6.875,10.5654296875
361.00559997558594,-6.9375,10.4365234375
362.0039529800415,-6.875,10.46875
363.0016288757324,-7.0625,10.46875
364.00100588798523,-7.0625,10.5009765625
365.00120401382446,-7.125,10.533203125
366.0008590221405,-7.125,10.404296875
367.0053000450134,-7.1875,10.404296875
368.0033769607544,-7.1875,10.46875
369.00482988357544,-7.3125,10.5654296875
370.00268507003784,-7.3125,10.4365234375
371.0002830028534,-7.3125,10.404296875
372.00055503845215,-7.3125,10.4365234375
373.0012950897217,-7.375,10.4365234375
374.00482201576233,-7.4375,10.4365234375
375.00188994407654,-7.5,10.404296875
376.0014760494232,-7.5,10.404296875
377.00475788116455,-7.5,10.5009765625
378.0045130252838,-7.5625,10.4365234375
379.00065088272095,-7.625,10.3076171875
380.0024199485779,-7.625,10.404296875
381.0042359828949,-7.75,10.3720703125
382.0036389827728,-7.8125,10.275390625
383.00398302078247,-7.8125,10.275390625
384.0019118785858,-7.8125,10.3076171875
385.0018880367279,-7.875,10.3076171875
386.0061900615692,-7.9375,10.2431640625
387.0031530857086,-7.9375,10.1787109375
388.00060200691223,-8.0,10.146484375
389.0046899318695,-8.0,10.2109375
390.00437903404236,-7.9375,10.3076171875
391.0001919269562,-8.0625,10.1787109375
392.0040318965912,-8.0625,10.2109375
393.0040879249573,-8.0625,10.2109375
394.0017988681793,-8.125,10.3720703125
395.001501083374,-8.1875,10.3076171875
396.0043258666992,-8.25,10.2431640625
397.00183296203613,-8.1875,10.3076171875
398.00651597976685,-8.375,10.1787109375
399.00262808799744,-8.6875,10.1142578125
400.00268387794495,-8.75,9.9208984375
401.0024619102478,-9.0,9.9208984375
402.0014109611511,-9.1875,9.953125
403.0014328956604,-9.375,9.7919921875
404.0029079914093,-9.5625,9.82421875
405.0002238750458,-9.75,9.7919921875
406.00193095207214,-9.875,9.6630859375
407.0058009624481,-10.0625,9.7275390625
408.00175309181213,-10.25,9.5986328125
409.00205397605896,-10.4375,9.5341796875
410.00296807289124,-10.5625,9.501953125
411.0042290687561,-10.6875,9.56640625
412.0014488697052,-10.8125,9.4375
413.0003628730774,-10.9375,9.4375
414.0007960796356,-11.125,9.4375
415.00172090530396,-11.1875,9.5341796875
416.0009129047394,-11.3125,9.244140625
417.0008499622345,-11.5,9.3408203125
418.0006380081177,-11.625,9.4052734375
419.0032889842987,-11.75,9.2763671875
420.00558495521545,-11.875,9.244140625
421.0050849914551,-11.9375,9.2119140625
422.00496196746826,-12.0625,9.115234375
423.0002360343933,-12.125,9.2119140625
424.0029180049896,-12.25,9.2119140625
425.0045928955078,-12.25,9.115234375
426.00146102905273,-12.3125,9.05078125
427.0003969669342,-12.4375,9.115234375
428.00308203697205,-12.5,9.1474609375
429.00300693511963,-12.625,9.1796875
430.00215005874634,-12.6875,9.0830078125
431.0025780200958,-12.75,9.05078125
432.00023889541626,-12.875,9.1474609375
433.0009469985962,-12.9375,9.0830078125
434.0031280517578,-13.0625,8.9541015625
435.00133991241455,-13.125,8.921875
436.0009310245514,-13.1875,8.986328125
437.00038290023804,-13.3125,9.05078125
438.00483989715576,-13.3125,8.8896484375
439.0011820793152,-13.375,9.0830078125
440.0007450580597,-13.5,8.986328125
441.0021870136261,-13.5625,9.05078125
442.00334095954895,-13.625,8.921875
443.00113797187805,-13.625,8.921875
444.0026009082794,-13.75,8.8251953125
445.0046830177307,-13.8125,8.921875
446.00483989715576,-13.875,8.8896484375
447.00470089912415,-13.875,8.857421875
448.0017249584198,-13.9375,8.857421875
449.00478506088257,-14.0625,8.8896484375
450.0008099079132,-14.125,8.857421875
451.00236988067627,-14.1875,8.8251953125
452.0003709793091,-14.3125,8.79296875
453.00301909446716,-14.3125,8.857421875
454.0014250278473,-14.3125,8.79296875
455.0024390220642,-14.375,8.8251953125
456.0040919780731,-14.4375,8.728515625
457.0004708766937,-14.5,8.7607421875
458.00201392173767,-14.5625,8.7607421875
459.0055799484253,-14.625,8.6962890625
460.0050160884857,-14.6875,8.728515625
461.00604605674744,-14.75,8.470703125
462.0062348842621,-14.8125,8.79296875
463.0057740211487,-14.8125,8.599609375
464.001914024353,-14.8125,8.6318359375
465.00021290779114,-15.0,8.6962890625
466.0025770664215,-15.0625,8.728515625
467.00189900398254,-15.0625,8.6318359375
468.0002920627594,-15.125,8.6318359375
469.0056688785553,-15.1875,8.6318359375
470.005793094635,-15.1875,8.6318359375
471.0051510334015,-15.25,8.5673828125
472.00554299354553,-15.3125,8.53515625
473.0054979324341,-15.25,8.5673828125
474.00157403945923,-15.3125,8.4384765625
475.0050160884857,-15.4375,8.5673828125
476.00412702560425,-15.5,8.7607421875
477.0017189979553,-15.5,8.4384765625
478.00334191322327,-15.5625,8.40625
479.0034770965576,-15.625,8.4384765625
480.00119495391846,-15.625,8.5029296875
481.0017030239105,-15.6875,8.341796875
482.0054919719696,-15.75,8.4384765625
483.0046260356903,-15.75,8.341796875
484.00169801712036,-15.75,8.40625
485.0015239715576,-15.875,8.470703125
486.00170493125916,-15.875,8.470703125
487.0038158893585,-15.9375,8.2451171875
488.00369000434875,-16.0,8.5029296875
489.00577187538147,-16.0,8.341796875
490.0065870285034,-16.125,8.40625
491.00393986701965,-16.125,8.083984375
492.0033760070801,-16.125,8.3095703125
493.0006859302521,-16.1875,8.40625
494.00114393234253,-16.1875,8.27734375
495.0034759044647,-16.3125,8.212890625
496.0042669773102,-16.3125,8.3095703125
497.00236892700195,-16.375,8.212890625
498.00458788871765,-16.4375,8.27734375
499.00020003318787,-16.4375,8.27734375
500.00247502326965,-16.5,8.40625
501.0011899471283,-16.5,8.341796875
502.000853061676,-16.5625,8.1806640625
503.0009319782257,-16.5625,8.1806640625
504.00620007514954,-16.625,8.1806640625
505.0045108795166,-16.6875,8.2451171875
506.00269889831543,-16.6875,8.1484375
507.0007920265198,-16.6875,8.01953125
